* temperature,47.1
# tab:ChamberData
volume,pressure
2.1		,	24.6
2		,	25.7
1.9		,	26.6
1.8		,	27.6
1.7		,	28.6
1.6		,	29.5
1.5		,	30.4
1.4		,	31.5
1.3		,	32.6
1.2		,	33.7
1.1		,	34.6
1		,	35.5
0.95	,		35.7
0.9		,	36
0.875	,		36.2
0.85	,		36.3
0.825	,		36.5
0.8		,	36.6
0.775	,		36.8
0.75	,		36.9
0.725	,		37
0.7		,	37
0.675	,		37.1
0.65	,		37.1
0.625	,		37.3
0.6		,	37.4
0.575	,		37.5
0.55	,		37.6
0.525	,		38.2
0.5		,	39
0.475	,		40
0.46	,		42.5
0.45	,		45