val:temperature,50
tab:ChamberData
volume,pressure
1.9		,	27.2
1.8		,	28.2
1.7		,	29.3
1.6		,	30.2
1.5		,	31.4
1.4		,	32.5
1.3		,	33.6
1.2		,	34.9
1.1		,	35.9
1		,	37.1
0.95	,		37.5
0.9		,	38.1
0.85	,		38.4
0.8		,	39
0.75	,		39.3
0.725	,		39.4
0.7		,	39.5
0.675	,		39.7
0.65	,		39.8
0.625	,		40
0.6		,	40.3
0.575	,		40.6
0.55	,		41
0.525	,		41.7
0.5		,	43.1