# tab:ChamberData
volume,pressure
1.9		,	27
1.8		,	27.9
1.7		,	29
1.6		,	29.8
1.5		,	30.7
1.4		,	32
1.3		,	33
1.2		,	34.1
1.1		,	35
1		,	36.1
0.95	,		36.4
0.9		,	36.7
0.875	,		36.8
0.85	,		37
0.825	,		37.2
0.8		,	37.3
0.775	,		37.5
0.75	,		37.6
0.725	,		37.7
0.7		,	37.9
0.675	,		38
0.65	,		38.1
0.625	,		38.2
0.6		,	38.4
0.575	,		38.5
0.55	,		38.8
0.525	,		39
0.5		,	40.7
0.475	,		42.2
0.45	,		45.1